radius,value
0.00025,0.9980876445770264
0.00075,0.9970648288726807
0.00125,0.9951488971710205
0.00175,0.9922661781311035
0.0022500000000000003,0.9879518747329712
0.00275,0.9829379320144653
0.0032500000000000003,0.9774125218391418
0.00375,0.9706075191497803
0.00425,0.9623388648033142
0.00475,0.952743649482727
0.00525,0.9431535005569458
0.00575,0.9333287477493286
0.00625,0.9213180541992188
0.00675,0.9082385301589966
0.00725,0.8943371772766113
0.00775,0.8805888891220093
0.00825,0.8658396005630493
0.00875,0.85038822889328
0.00925,0.833538293838501
0.00975,0.8155574202537537
0.01025,0.7982938885688782
0.010750000000000001,0.7796735167503357
0.01125,0.7605891823768616
0.01175,0.7416175007820129
0.01225,0.7207683324813843
0.012750000000000001,0.6993157267570496
0.01325,0.6780949831008911
0.01375,0.6572447419166565
0.01425,0.6359071135520935
0.014750000000000001,0.6136195063591003
0.01525,0.5916655659675598
0.01575,0.5690034031867981
0.01625,0.5460873246192932
0.01675,0.5229946970939636
0.01725,0.499481201171875
0.017750000000000002,0.47713103890419006
0.01825,0.4547894299030304
0.01875,0.43234556913375854
0.01925,0.40912294387817383
0.01975,0.38583195209503174
0.02025,0.36413416266441345
0.02075,0.34274783730506897
0.02125,0.3208004832267761
0.021750000000000002,0.29876768589019775
0.02225,0.2769346535205841
0.02275,0.2566051185131073
0.02325,0.23685532808303833
0.02375,0.216872900724411
0.02425,0.19725380837917328
0.02475,0.17759832739830017
0.02525,0.15837880969047546
0.025750000000000002,0.1402106136083603
0.02625,0.12309326231479645
0.02675,0.10668745636940002
0.02725,0.09049584716558456
0.02775,0.07445795834064484
0.02825,0.059249673038721085
0.02875,0.04467376321554184
0.02925,0.030974119901657104
0.029750000000000002,0.017818691208958626
0.03025,0.0049615236930549145
0.03075,-0.0070169405080378056
0.03125,-0.018273763358592987
0.03175,-0.02880377508699894
0.03225,-0.03895872086286545
0.03275,-0.048310354351997375
0.03325,-0.05658797174692154
0.03375,-0.06449386477470398
0.03425,-0.07189612835645676
0.03475,-0.07861535251140594
0.035250000000000004,-0.0845622643828392
0.035750000000000004,-0.08976708352565765
0.03625,-0.09458886086940765
0.03675,-0.09880881756544113
0.03725,-0.10243305563926697
0.03775,-0.10538506507873535
0.03825,-0.10747877508401871
0.03875,-0.10953009873628616
0.03925,-0.11076169461011887
0.03975,-0.11163585633039474
0.04025,-0.11161285638809204
0.04075,-0.11140324920415878
0.04125,-0.11115238815546036
0.04175,-0.1097462996840477
0.04225,-0.10833337157964706
0.04275,-0.1064140722155571
0.043250000000000004,-0.10405087471008301
0.043750000000000004,-0.1018051952123642
0.04425,-0.09859452396631241
0.04475,-0.09564325958490372
0.04525,-0.09199386090040207
0.04575,-0.08874955028295517
0.04625,-0.08487188816070557
0.04675,-0.08007025718688965
0.04725,-0.07678265124559402
0.04775,-0.07211482524871826
0.04825,-0.06813714653253555
0.04875,-0.06287688761949539
0.04925,-0.05832044780254364
0.04975,-0.05408281087875366
0.05025,-0.049231089651584625
0.05075,-0.04462534561753273
0.051250000000000004,-0.03971075266599655
0.051750000000000004,-0.03532445430755615
0.05225,-0.031358931213617325
0.05275,-0.025468358770012856
0.05325,-0.02205534651875496
0.05375,-0.017062125727534294
0.05425,-0.013904554769396782
0.05475,-0.009507962502539158
0.05525,-0.0035960262175649405
0.05575,-0.002195109147578478
0.05625,0.00294562173075974
0.05675,0.005094463471323252
0.05725,0.010176379233598709
0.05775,0.013079458847641945
0.05825,0.015574045479297638
0.058750000000000004,0.01933117024600506
0.059250000000000004,0.021195445209741592
0.059750000000000004,0.024227101355791092
0.06025,0.026247428730130196
0.06075,0.02780906669795513
0.06125,0.03146163001656532
0.06175,0.032180268317461014
0.06225,0.034486208111047745
0.06275,0.03451842814683914
0.06325,0.036280691623687744
0.06375,0.03889858350157738
0.06425,0.03719864413142204
0.06475,0.04028957709670067
0.06525,0.038252636790275574
0.06575,0.040835190564394
0.06625,0.040602896362543106
0.06675,0.03922760486602783
0.06725,0.03973611444234848
0.06775,0.03986073285341263
0.06825,0.040048517286777496
0.06875,0.03765649348497391
0.06925,0.03775159642100334
0.06975,0.03796942159533501
0.07025,0.03548901528120041
0.07075000000000001,0.035527560859918594
0.07125000000000001,0.03317806497216225
0.07175000000000001,0.03276548907160759
0.07225,0.031390480697155
0.07275,0.02987280674278736
0.07325,0.029569659382104874
0.07375,0.025032849982380867
0.07425,0.02847297489643097
0.07475,0.023718412965536118
0.07525,0.02233515866100788
0.07575,0.021903373301029205
0.07625,0.01896280236542225
0.07675,0.019348684698343277
0.07725,0.016168855130672455
0.07775,0.015621560625731945
0.07825,0.014715752564370632
0.07875,0.01239139772951603
0.07925,0.012056075036525726
0.07975,0.008053791709244251
0.08025,0.009649817831814289
0.08075,0.00888046994805336
0.08125,0.006247229874134064
0.08175,0.00620209751650691
0.08225,0.002641875995323062
0.08275,0.004826076328754425
0.08325,0.0029785302467644215
0.08375,0.002304175402969122
0.08425,0.0017461554380133748
0.08475,0.00033431194606237113
0.08525,0.0010863428469747305
0.08575,-0.0014381255023181438
0.08625000000000001,-0.0006300089880824089
0.08675000000000001,-0.0009747747681103647
0.08725000000000001,-0.001334123662672937
0.08775000000000001,-0.0008128874469548464
0.08825,-0.0031872738618403673
0.08875,-0.0012642035726457834
0.08925,-0.0019857268780469894
0.08975,-0.0019560009241104126
0.09025,-0.0012371328193694353
0.09075,-0.0029907668940722942
0.09125,-0.0009568773675709963
0.09175,-0.001923678908497095
0.09225,-0.00125430291518569
0.09275,-0.0008586521144025028
0.09325,-0.00022605160484090447
0.09375,-0.00033554446417838335
0.09425,-0.0002299611660419032
0.09475,0.0007726314943283796
0.09525,0.0013585162814706564
0.09575,0.0017068336019292474
0.09625,0.0023972433991730213
0.09675,0.0023776949383318424
0.09725,0.0035376553423702717
0.09775,0.004043101333081722
0.09825,0.004775873385369778
0.09875,0.004816079046577215
0.09925,0.006106139160692692
0.09975,0.00722019886597991
0.10025,0.007489386945962906
0.10075,0.008335817605257034
0.10125,0.008867108263075352
0.10175000000000001,0.009491994045674801
0.10225000000000001,0.00969274528324604
0.10275000000000001,0.010732344351708889
0.10325000000000001,0.011915181763470173
0.10375000000000001,0.011965975165367126
0.10425,0.013353011570870876
0.10475,0.013372217305004597
0.10525,0.013850453309714794
0.10575,0.01387623231858015
0.10625,0.015056159347295761
0.10675,0.015506167896091938
0.10725,0.015764232724905014
0.10775,0.01603768952190876
0.10825,0.01612105593085289
0.10875,0.016838304698467255
0.10925,0.016684947535395622
0.10975,0.017043037340044975
0.11025,0.017354248091578484
0.11075,0.016676263883709908
0.11125,0.01730106584727764
0.11175,0.01723835989832878
0.11225,0.017100214958190918
0.11275,0.01737402193248272
0.11325,0.016820130869746208
0.11375,0.01693066582083702
0.11425,0.015559222549200058
0.11475,0.01622510887682438
0.11525,0.016010571271181107
0.11575,0.01568938046693802
0.11625,0.015082724392414093
0.11675,0.01457139290869236
0.11725000000000001,0.014432045631110668
0.11775000000000001,0.013802786357700825
0.11825000000000001,0.013490576297044754
0.11875000000000001,0.012888758443295956
0.11925000000000001,0.012517120689153671
0.11975000000000001,0.01223073247820139
0.12025,0.011489754542708397
0.12075,0.011350438930094242
0.12125,0.010443049483001232
0.12175,0.00994628295302391
0.12225,0.009421578608453274
0.12275,0.008961323648691177
0.12325,0.008677532896399498
0.12375,0.00771763501688838
0.12425,0.007748265750706196
0.12475,0.0077126664109528065
0.12525,0.007903816178441048
0.12575,0.007398584391921759
0.12625,0.005188243463635445
0.12675,0.005207020323723555
0.12725,0.004196690861135721
0.12775,0.004120334517210722
0.12825,0.0032669338397681713
0.12875,0.0022563920356333256
0.12925,0.0034933285787701607
0.12975,0.0013652503257617354
0.13025,0.0018206401728093624
0.13075,0.0001761809253366664
0.13125,-0.0008184014586731791
0.13175,0.00035562028642743826
0.13225,-0.002943482017144561
0.13275,-0.001518032979220152
0.13325,-0.0028817965649068356
0.13375,-0.004968979395925999
0.13425,-0.003473790595307946
0.13475,-0.007121007423847914
0.13525,-0.005343523807823658
0.13575,-0.006515324581414461
0.13625,-0.008256388828158379
0.13675,-0.007330186665058136
0.13725,-0.010865622200071812
0.13775,-0.007285388186573982
0.13825,-0.010042219422757626
0.13875,-0.009710430167615414
0.13925,-0.009748006239533424
0.13975,-0.012067660689353943
0.14025,-0.0084652379155159
0.14075000000000001,-0.011057410389184952
0.14125000000000001,-0.009273949079215527
0.14175000000000001,-0.009974034503102303
0.14225000000000002,-0.010428224690258503
0.14275000000000002,-0.008575120940804482
0.14325000000000002,-0.00997421145439148
0.14375000000000002,-0.006864661350846291
0.14425,-0.008522246032953262
0.14475,-0.006780580151826143
0.14525,-0.0067231310531497
0.14575,-0.007118424866348505
0.14625,-0.0036513004451990128
0.14675,-0.005009546875953674
0.14725,-0.0026751216500997543
0.14775,-0.0028555281460285187
0.14825,-0.0015066148480400443
0.14875,-5.6651992053957656e-05
0.14925,-0.001366112381219864
0.14975,0.002648936351761222
0.15025,0.0012299639638513327
0.15075,0.0038157033268362284
0.15125,0.004068037960678339
0.15175,0.003444233676418662
0.15225,0.007387655321508646
0.15275,0.005525987129658461
0.15325,0.008587859570980072
0.15375,0.008075566962361336
0.15425,0.007409338839352131
0.15475,0.0116984648630023
0.15525,0.009560314938426018
0.15575,0.012414277531206608
0.15625,0.011219808831810951
0.15675,0.012650148943066597
0.15725,0.01342366635799408
0.15775,0.012221678160130978
0.15825,0.015693990513682365
0.15875,0.013222424313426018
0.15925,0.01585962064564228
0.15975,0.014715434983372688
0.16025,0.013933219015598297
0.16075,0.01724957302212715
0.16125,0.014852778054773808
0.16175,0.016676584258675575
0.16225,0.015557993203401566
0.16275,0.01631719246506691
0.16325,0.0164435263723135
0.16375,0.015633758157491684
0.16425,0.01684538647532463
0.16475,0.015774300321936607
0.16525,0.016259539872407913
0.16575,0.015969764441251755
0.16625,0.01516141276806593
