radius,value
0.00025,0.9932209253311157
0.00075,0.9883400201797485
0.00125,0.9792317152023315
0.00175,0.9656177759170532
0.0022500000000000003,0.9454323649406433
0.00275,0.9222936630249023
0.0032500000000000003,0.8971728086471558
0.00375,0.8666952252388
0.00425,0.8305329084396362
0.00475,0.7894738912582397
0.00525,0.7498568892478943
0.00575,0.7103427052497864
0.00625,0.6631534099578857
0.00675,0.6142224073410034
0.00725,0.5636608004570007
0.00775,0.5170814990997314
0.00825,0.46818506717681885
0.00875,0.4197034537792206
0.00925,0.37054213881492615
0.00975,0.3191151022911072
0.01025,0.27627983689308167
0.010750000000000001,0.22953884303569794
0.01125,0.18723219633102417
0.01175,0.14852069318294525
0.01225,0.10704215615987778
0.012750000000000001,0.07280535995960236
0.01325,0.03795815631747246
0.01375,0.01092515792697668
0.01425,-0.015990762040019035
0.014750000000000001,-0.040372636169195175
0.01525,-0.05651070177555084
0.01575,-0.0767027884721756
0.01625,-0.08677810430526733
0.01675,-0.10140835493803024
0.01725,-0.1091964989900589
0.017750000000000002,-0.1082337349653244
0.01825,-0.11586548388004303
0.01875,-0.11236260831356049
0.01925,-0.11424394696950912
0.01975,-0.10826331377029419
0.02025,-0.09657195210456848
0.02075,-0.09646224975585938
0.02125,-0.08490875363349915
0.021750000000000002,-0.07747893780469894
0.02225,-0.0657987967133522
0.02275,-0.053364139050245285
0.02325,-0.04562228173017502
0.02375,-0.03314553201198578
0.02425,-0.024460678920149803
0.02475,-0.012416728772222996
0.02525,-0.0025379813741892576
0.025750000000000002,0.006231006234884262
0.02625,0.01452887337654829
0.02675,0.021285228431224823
0.02725,0.027604902163147926
0.02775,0.03275424614548683
0.02825,0.03705906122922897
0.02875,0.040131717920303345
0.02925,0.042640797793865204
0.029750000000000002,0.04330514371395111
0.03025,0.04388346150517464
0.03075,0.0422465056180954
0.03125,0.04160809889435768
0.03175,0.03920220956206322
0.03225,0.035534340888261795
0.03275,0.0336579792201519
0.03325,0.028467722237110138
0.03375,0.02570778876543045
0.03425,0.01991599053144455
0.03475,0.015728142112493515
0.035250000000000004,0.012565234676003456
0.035750000000000004,0.006855985149741173
0.03625,0.0041245268657803535
0.03675,-0.002014207188040018
0.03725,-0.0042287432588636875
0.03775,-0.007565868087112904
0.03825,-0.011210184544324875
0.03875,-0.012224527075886726
0.03925,-0.015099901705980301
0.03975,-0.015851905569434166
0.04025,-0.017709799110889435
0.04075,-0.018060611560940742
0.04125,-0.01743142679333687
0.04175,-0.01743738353252411
0.04225,-0.017175326123833656
0.04275,-0.015550589188933372
0.043250000000000004,-0.014256537891924381
0.043750000000000004,-0.012873264960944653
0.04425,-0.010477805510163307
0.04475,-0.009808888658881187
0.04525,-0.006745724938809872
0.04575,-0.004712590016424656
0.04625,-0.003092111786827445
0.04675,-0.0005200810264796019
0.04725,-7.5225707405479625e-06
0.04775,0.0029056514613330364
0.04825,0.0036591060925275087
0.04875,0.005442441441118717
0.04925,0.007019949611276388
0.04975,0.00694605428725481
0.05025,0.008402422070503235
0.05075,0.007855508476495743
0.051250000000000004,0.008562629111111164
0.051750000000000004,0.008237714879214764
0.05225,0.007997740060091019
0.05275,0.00769061129540205
0.05325,0.006413470022380352
0.05375,0.006109178066253662
0.05425,0.004904798232018948
0.05475,0.004011624958366156
0.05525,0.0028820002917200327
0.05575,0.0012213544687256217
0.05625,0.0005330148851498961
0.05675,-0.0006759675452485681
0.05725,-0.0015776037471368909
0.05775,-0.0026297098957002163
0.05825,-0.003862994257360697
0.058750000000000004,-0.004259495530277491
0.059250000000000004,-0.005187110975384712
0.059750000000000004,-0.005277164280414581
0.06025,-0.005947762168943882
0.06075,-0.006105196196585894
0.06125,-0.005746511742472649
0.06175,-0.006510094273835421
0.06225,-0.005485277622938156
0.06275,-0.00554424524307251
0.06325,-0.004723645281046629
0.06375,-0.003948942292481661
0.06425,-0.003710538614541292
0.06475,-0.002699166303500533
0.06525,-0.0024415352381765842
0.06575,-0.0010087455157190561
0.06625,-0.0003252521564718336
0.06675,0.0004292658413760364
0.06725,0.0013687295140698552
0.06775,0.0014864089898765087
0.06825,0.0024925691541284323
0.06875,0.002936529228463769
0.06925,0.0035701824817806482
0.06975,0.0040080351755023
0.07025,0.00391707057133317
0.07075000000000001,0.004352368880063295
0.07125000000000001,0.004179765935987234
0.07175000000000001,0.004212364088743925
0.07225,0.004004527349025011
0.07275,0.003666255623102188
0.07325,0.003398428438231349
0.07375,0.0028842848259955645
0.07425,0.002322947373613715
0.07475,0.0017326255328953266
0.07525,0.001086174976080656
0.07575,0.00040242355316877365
0.07625,-0.00024024248705245554
0.07675,-0.0009700001683086157
0.07725,-0.001436951570212841
0.07775,-0.0022656447254121304
0.07825,-0.0028826778288930655
0.07875,-0.0034320976119488478
0.07925,-0.003902763593941927
0.07975,-0.004246694501489401
0.08025,-0.004609069786965847
0.08075,-0.005011724773794413
0.08125,-0.005138942040503025
0.08175,-0.005080405622720718
0.08225,-0.0051681287586688995
0.08275,-0.005159282125532627
0.08325,-0.004989551845937967
0.08375,-0.004670638125389814
0.08425,-0.00420033372938633
0.08475,-0.004307039547711611
0.08525,-0.0033652912825345993
0.08575,-0.0030575471464544535
0.08625000000000001,-0.002482159063220024
0.08675000000000001,-0.0020175245590507984
0.08725000000000001,-0.0014947246527299285
0.08775000000000001,-0.0006968816160224378
0.08825,-0.0003641251241788268
0.08875,0.0002248308010166511
0.08925,0.0008621481829322875
0.08975,0.0012946310453116894
0.09025,0.001642505987547338
0.09075,0.0020644115284085274
0.09125,0.002414447022601962
0.09175,0.0026826371904462576
0.09225,0.0028113476000726223
0.09275,0.0029094500932842493
0.09325,0.003219444304704666
0.09375,0.002992141991853714
0.09425,0.0030629083048552275
0.09475,0.0026120422407984734
0.09525,0.002756049856543541
0.09575,0.0022434741258621216
0.09625,0.0018748193979263306
0.09675,0.0017254945123568177
0.09725,0.0009510857053101063
0.09775,0.0011883601546287537
0.09825,0.00015244746464304626
0.09875,-0.0005208785878494382
0.09925,-0.0007461957284249365
0.09975,-0.0012577055022120476
0.10025,-0.0012573807034641504
0.10075,-0.0022983960807323456
0.10125,-0.0024221104104071856
0.10175000000000001,-0.0028680777177214622
0.10225000000000001,-0.003553147194907069
0.10275000000000001,-0.003253405215218663
0.10325000000000001,-0.003993299789726734
0.10375000000000001,-0.0036805542185902596
0.10425,-0.00407471414655447
0.10475,-0.0046010506339371204
0.10525,-0.0040745423175394535
0.10575,-0.004357383586466312
0.10625,-0.0036538501735776663
0.10675,-0.003942123614251614
0.10725,-0.003794108983129263
0.10775,-0.003511809278279543
0.10825,-0.0032155734952539206
0.10875,-0.0027606328949332237
0.10925,-0.0026282549370080233
0.10975,-0.0021011712960898876
0.11025,-0.0017670885426923633
0.11075,-0.0014532004715874791
0.11125,-0.0010672216303646564
0.11175,-0.00037315223016776145
0.11225,-0.00023651083756703883
0.11275,5.018689626012929e-05
0.11325,0.0007022845093160868
0.11375,0.000829277909360826
0.11425,0.0010735056130215526
0.11475,0.0014647042844444513
0.11525,0.0015417082468047738
0.11575,0.0021088586654514074
0.11625,0.0020863537210971117
0.11675,0.002048588590696454
0.11725000000000001,0.002244681818410754
0.11775000000000001,0.002266590716317296
0.11825000000000001,0.002461762633174658
0.11875000000000001,0.002077850978821516
0.11925000000000001,0.002098984317854047
0.11975000000000001,0.0023628741037100554
0.12025,0.0019553247839212418
0.12075,0.0018041393486782908
0.12125,0.0017209163634106517
0.12175,0.0015579367754980922
0.12225,0.0015666570980101824
0.12275,0.0010157355573028326
0.12325,0.0010280126007273793
0.12375,0.0008082899148575962
0.12425,0.0005979046109132469
0.12475,0.00034245295682922006
0.12525,2.8568565539899282e-06
0.12575,-2.7375661375117488e-05
0.12625,8.075263758655638e-05
0.12675,7.919847121229395e-05
0.12725,-0.00016375402628909796
0.12775,-0.00023635911929886788
0.12825,-0.0007105826516635716
0.12875,-0.0007759903674013913
0.12925,-0.0011742671485990286
0.12975,-0.0010838904418051243
0.13025,-0.0011013111798092723
0.13075,-0.0009496595012024045
0.13125,-0.0006383871077559888
0.13175,-0.0009165781084448099
0.13225,-0.00044328891090117395
0.13275,-0.0007323672180064023
0.13325,-0.0003617621841840446
0.13375,-0.0001856334856711328
0.13425,-0.00035507630673237145
0.13475,8.232243271777406e-05
0.13525,-0.00035872129956260324
0.13575,0.0004481972719077021
0.13625,6.518055306514725e-05
0.13675,0.00044978773803450167
0.13725,0.0006709230365231633
0.13775,0.0001237548131030053
0.13825,0.0008644888876006007
0.13875,0.00040711299516260624
0.13925,0.000800860405433923
0.13975,0.0007981694652698934
0.14025,-2.2272161004366353e-05
0.14075000000000001,0.0008502373239025474
0.14125000000000001,4.300214277463965e-05
0.14175000000000001,0.0006279860972426832
0.14225000000000002,-6.113584822742268e-05
0.14275000000000002,-0.00013965650578029454
0.14325000000000002,0.00027892852085642517
0.14375000000000002,-0.0005532882642000914
0.14425,-4.8299629270331934e-05
0.14475,-0.0007538496283814311
0.14525,-0.0005743216606788337
0.14575,-0.00018547105719335377
0.14625,-0.0012312758481130004
0.14675,-0.0005528192268684506
0.14725,-0.0012671974254772067
0.14775,-0.0011015873169526458
0.14825,-0.0010932186851277947
0.14875,-0.0015720616793259978
0.14925,-0.0013051853748038411
0.14975,-0.0019281258573755622
0.15025,-0.00170524965506047
0.15075,-0.0019939017947763205
0.15125,-0.0021611666306853294
0.15175,-0.0020651628728955984
0.15225,-0.0026363355573266745
0.15275,-0.0023574375081807375
0.15325,-0.002712989691644907
0.15375,-0.0026198746636509895
0.15425,-0.0025471861008554697
0.15475,-0.002855767263099551
0.15525,-0.0025920295156538486
0.15575,-0.0027002382557839155
0.15625,-0.002449765568599105
0.15675,-0.0024024872109293938
0.15725,-0.0022100305650383234
0.15775,-0.0019275706727057695
0.15825,-0.0019310652278363705
0.15875,-0.0014830364380031824
0.15925,-0.0014442491810768843
0.15975,-0.000991051085293293
0.16025,-0.0007712810765951872
0.16075,-0.000754375068936497
0.16125,-0.0002742540673352778
0.16175,-0.0003154115693178028
0.16225,8.078416431089863e-05
0.16275,8.166006591636688e-05
0.16325,0.00020082941045984626
0.16375,0.0004719759745057672
0.16425,0.0001565445272717625
0.16475,0.0004827318771276623
0.16525,0.00018219831690657884
0.16575,0.0002627061912789941
0.16625,0.00032348206150345504
